# tau [ps];  MSD [pm^2];  Derivative
0.000000; 0.000000; 1477377.235510
0.010000; 14773.772355; 1437458.487673
0.020000; 29148.357232; 1334916.595257
0.030000; 42497.523184; 1215429.861207
0.040000; 54651.821796; 1109779.738043
0.050000; 65749.619177; 1022291.869228
0.060000; 75972.537869; 937497.401019
0.070000; 85347.511879; 854045.423589
0.080000; 93887.966115; 794490.093829
0.090000; 101832.867054; 737321.677561
0.100000; 109206.083829; 696615.608691
0.110000; 116172.239916; 659218.524629
0.120000; 122764.425162; 637118.008232
0.130000; 129135.605245; 619577.150448
0.140000; 135331.376749; 600772.711695
0.150000; 141339.103866; 578445.708045
0.160000; 147123.560947; 556631.039452
0.170000; 152689.871341; 536754.242580
0.180000; 158057.413767; 517408.319470
0.190000; 163231.496962; 501009.862366
0.200000; 168241.595585; 483955.259880
0.210000; 173081.148184; 471294.693537
0.220000; 177794.095119; 450979.954931
0.230000; 182303.894669; 437540.897024
0.240000; 186679.303639; 426318.888849
0.250000; 190942.492527; 415527.842543
0.260000; 195097.770953; 401982.209045
0.270000; 199117.593043; 391502.906979
0.280000; 203032.622113; 386470.306254
0.290000; 206897.325176; 374165.538819
0.300000; 210638.980564; 357184.245660
0.310000; 214210.823020; 338856.841643
0.320000; 217599.391437; 327768.813743
0.330000; 220877.079574; 319395.462635
0.340000; 224071.034201; 309384.423267
0.350000; 227164.878433; 304776.633350
0.360000; 230212.644767; 297339.980487
0.370000; 233186.044572; 289325.832764
0.380000; 236079.302899; 282885.923605
0.390000; 238908.162135; 273411.466291
0.400000; 241642.276798; 263639.945553
0.410000; 244278.676254; 252013.614006
0.420000; 246798.812394; 248088.719728
0.430000; 249279.699591; 241946.169195
0.440000; 251699.161283; 238100.806824
0.450000; 254080.169351; 235587.204420
0.460000; 256436.041396; 235166.076599
0.470000; 258787.702162; 233094.411167
0.480000; 261118.646273; 228315.321046
0.490000; 263401.799484; 226540.008398
0.500000; 265667.199568; 224020.379186
0.510000; 267907.403359; 227028.742504
0.520000; 270177.690785; 219071.378814
0.530000; 272368.404573; 214980.257333
0.540000; 274518.207146; 212536.591337
0.550000; 276643.573059; 212322.816845
0.560000; 278766.801228; 208248.914295
0.570000; 280849.290371; 204659.203289
0.580000; 282895.882404; 200963.869744
0.590000; 284905.521101; 201198.826354
0.600000; 286917.509365; 193582.710078
0.610000; 288853.336465; 192752.814860
0.620000; 290780.864614; 189458.384449
0.630000; 292675.448458; 192081.899611
0.640000; 294596.267455; 191211.498378
0.650000; 296508.382438; 186614.142473
0.660000; 298374.523863; 185816.296550
0.670000; 300232.686829; 180807.074240
0.680000; 302040.757571; 177648.051263
0.690000; 303817.238084; 176453.037267
0.700000; 305581.768456; 176714.741399
0.710000; 307348.915870; 171010.824527
0.720000; 309059.024116; 171534.497114
0.730000; 310774.369087; 171176.328368
0.740000; 312486.132370; 172161.966305
0.750000; 314207.752033; 169517.157343
0.760000; 315902.923607; 167596.829202
0.770000; 317578.891899; 162308.856455
0.780000; 319201.980463; 160623.977943
0.790000; 320808.220243; 161959.238254
0.800000; 322427.812625; 156315.242052
0.810000; 323990.965046; 159292.056328
0.820000; 325583.885609; 159487.302224
0.830000; 327178.758631; 155407.363820
0.840000; 328732.832270; 159422.979373
0.850000; 330327.062063; 157131.091778
0.860000; 331898.372981; 157258.812852
0.870000; 333470.961110; 157967.986904
0.880000; 335050.640979; 157782.444520
0.890000; 336628.465424; 158094.606287
0.900000; 338209.411487; 154476.467869
0.910000; 339754.176165; 152249.397879
0.920000; 341276.670144; 147346.971646
0.930000; 342750.139861; 145158.160303
0.940000; 344201.721464; 151312.280134
0.950000; 345714.844265; 152951.496123
0.960000; 347244.359226; 153374.250784
0.970000; 348778.101734; 151436.432196
0.980000; 350292.466056; 149768.141431
0.990000; 351790.147470; 148685.264672
1.000000; 353277.000117; 148260.070811
1.010000; 354759.600825; 145584.435026
1.020000; 356215.445176; 142893.141305
1.030000; 357644.376589; 137185.579037
1.040000; 359016.232379; 139073.948868
1.050000; 360406.971868; 136127.525391
1.060000; 361768.247122; 135068.356742
1.070000; 363118.930689; 138850.826391
1.080000; 364507.438953; 140673.994389
1.090000; 365914.178897; 137454.777517
1.100000; 367288.726672; 135674.030361
1.110000; 368645.466976; 136388.871723
1.120000; 370009.355693; 135562.551054
1.130000; 371364.981203; 136456.103175
1.140000; 372729.542235; 132958.549870
1.150000; 374059.127734; 135595.168080
1.160000; 375415.079415; 130234.883750
1.170000; 376717.428252; 130861.780055
1.180000; 378026.046053; 124859.133947
1.190000; 379274.637392; 125985.209604
1.200000; 380534.489488; 125096.744679
1.210000; 381785.456935; 122677.175707
1.220000; 383012.228692; 123944.188969
1.230000; 384251.670582; 124074.158276
1.240000; 385492.412164; 123103.054067
1.250000; 386723.442705; 123188.526615
1.260000; 387955.327971; 117776.528914
1.270000; 389133.093260; 115373.730470
1.280000; 390286.830565; 108784.992663
1.290000; 391374.680492; 111554.097916
1.300000; 392490.221471; 110765.478662
1.310000; 393597.876257; 112019.272409
1.320000; 394718.068982; 113901.718238
1.330000; 395857.086164; 116356.115567
1.340000; 397020.647320; 118564.458629
1.350000; 398206.291906; 117856.585415
1.360000; 399384.857760; 116239.481042
1.370000; 400547.252570; 117826.855877
1.380000; 401725.521129; 115375.379772
1.390000; 402879.274927; 114616.668162
1.400000; 404025.441609; 117100.949732
1.410000; 405196.451106; 119986.721069
1.420000; 406396.318317; 118285.411100
1.430000; 407579.172428; 121810.747825
1.440000; 408797.279906; 122623.302116
1.450000; 410023.512927; 120206.701191
1.460000; 411225.579939; 114316.279614
1.470000; 412368.742735; 114023.528471
1.480000; 413508.978020; 116165.838823
1.490000; 414670.636408; 116852.005410
1.500000; 415839.156462; 113607.572942
1.510000; 416975.232192; 112843.555571
1.520000; 418103.667747; 112342.518307
1.530000; 419227.092930; 114714.415007
1.540000; 420374.237080; 114524.986500
1.550000; 421519.486945; 114625.009867
1.560000; 422665.737044; 111081.514119
1.570000; 423776.552185; 115708.062682
1.580000; 424933.632812; 113525.534252
1.590000; 426068.888155; 110465.971251
1.600000; 427173.547867; 112678.922059
1.610000; 428300.337088; 110122.086054
1.620000; 429401.557948; 111042.305544
1.630000; 430511.981004; 116456.688209
1.640000; 431676.547886; 114586.181905
1.650000; 432822.409705; 114833.450591
1.660000; 433970.744211; 114035.121789
1.670000; 435111.095429; 114042.264953
1.680000; 436251.518078; 111081.266652
1.690000; 437362.330745; 110305.016244
1.700000; 438465.380907; 108515.751296
1.710000; 439550.538420; 109609.102722
1.720000; 440646.629447; 110851.557214
1.730000; 441755.145019; 106420.549905
1.740000; 442819.350518; 106042.700464
1.750000; 443879.777523; 103932.953213
1.760000; 444919.107055; 105759.893853
1.770000; 445976.705994; 104589.200919
1.780000; 447022.598003; 111571.036170
1.790000; 448138.308365; 109333.672156
1.800000; 449231.645086; 113301.966732
1.810000; 450364.664754; 111608.255588
1.820000; 451480.747309; 108993.438648
1.830000; 452570.681696; 109182.082418
1.840000; 453662.502520; 110933.794753
1.850000; 454771.840468; 109901.419171
1.860000; 455870.854659; 111146.147715
1.870000; 456982.316136; 108648.423164
1.880000; 458068.800368; 107084.581844
1.890000; 459139.646187; 101175.390216
1.900000; 460151.400089; 99391.785673
1.910000; 461145.317945; 97892.406930
1.920000; 462124.242015; 99482.805796
1.930000; 463119.070073; 101959.189843
1.940000; 464138.661971; 101907.337270
1.950000; 465157.735344; 105131.339634
1.960000; 466209.048740; 105974.927922
1.970000; 467268.798019; 103640.681697
1.980000; 468305.204836; 103015.835175
1.990000; 469335.363188; 99982.610630
2.000000; 470335.189294; 97735.537965
2.010000; 471312.544674; 91779.637443
2.020000; 472230.341048; 90337.584020
2.030000; 473133.716889; 90573.460175
2.040000; 474039.451490; 91189.993107
2.050000; 474951.351421; 93337.031181
2.060000; 475884.721733; 94410.060422
2.070000; 476828.822337; 90354.193247
2.080000; 477732.364270; 90141.766976
2.090000; 478633.781940; 95006.660942
2.100000; 479583.848549; 94718.207509
2.110000; 480531.030624; 92845.447830
2.120000; 481459.485103; 96183.181872
2.130000; 482421.316921; 97433.075289
2.140000; 483395.647674; 96657.151613
2.150000; 484362.219190; 93417.637013
2.160000; 485296.395560; 90683.072912
2.170000; 486203.226289; 89493.782900
2.180000; 487098.164119; 87483.369444
2.190000; 487972.997813; 88688.642099
2.200000; 488859.884234; 90766.977752
2.210000; 489767.554011; 92415.231200
2.220000; 490691.706323; 91737.325938
2.230000; 491609.079583; 92853.130206
2.240000; 492537.610885; 91036.793858
2.250000; 493447.978823; 91378.305540
2.260000; 494361.761879; 91636.887972
2.270000; 495278.130759; 93207.092804
2.280000; 496210.201687; 93114.474673
2.290000; 497141.346433; 91283.989633
2.300000; 498054.186330; 90341.198740
2.310000; 498957.598317; 90862.622827
2.320000; 499866.224545; 87564.134032
2.330000; 500741.865886; 84966.631163
2.340000; 501591.532197; 80793.714370
2.350000; 502399.469341; 84323.129874
2.360000; 503242.700640; 85341.279239
2.370000; 504096.113432; 83801.238520
2.380000; 504934.125817; 84142.816623
2.390000; 505775.553984; 86222.280102
2.400000; 506637.776785; 83185.537410
2.410000; 507469.632159; 83614.500247
2.420000; 508305.777161; 84232.555070
2.430000; 509148.102712; 80994.953665
2.440000; 509958.052249; 80967.547952
2.450000; 510767.727728; 83783.641309
2.460000; 511605.564141; 85829.493327
2.470000; 512463.859074; 90512.249152
2.480000; 513368.981566; 88634.688331
2.490000; 514255.328449; 85979.876914
2.500000; 515115.127218; 81394.550170
2.510000; 515929.072720; 80797.589468
2.520000; 516737.048615; 82639.367824
2.530000; 517563.442293; 82759.190539
2.540000; 518391.034198; 84338.391093
2.550000; 519234.418109; 79542.681235
2.560000; 520029.844922; 80540.367506
2.570000; 520835.248597; 77567.825214
2.580000; 521610.926849; 84815.090442
2.590000; 522459.077753; 85165.683510
2.600000; 523310.734588; 84721.965759
2.610000; 524157.954246; 84497.076068
2.620000; 525002.925007; 85481.828584
2.630000; 525857.743292; 85116.743550
2.640000; 526708.910728; 84546.459458
2.650000; 527554.375323; 82222.744046
2.660000; 528376.602763; 78887.726458
2.670000; 529165.480028; 79615.868542
2.680000; 529961.638713; 80671.611030
2.690000; 530768.354823; 81726.330779
2.700000; 531585.618131; 81278.167688
2.710000; 532398.399808; 79597.996751
2.720000; 533194.379776; 77989.386643
2.730000; 533974.273642; 77600.101568
2.740000; 534750.274658; 76709.499784
2.750000; 535517.369655; 74299.969910
2.760000; 536260.369355; 73616.477692
2.770000; 536996.534132; 77849.402836
2.780000; 537775.028160; 76055.435062
2.790000; 538535.582510; 81377.688605
2.800000; 539349.359397; 79811.895744
2.810000; 540147.478354; 80036.970560
2.820000; 540947.848060; 81598.575033
2.830000; 541763.833810; 78254.945693
2.840000; 542546.383267; 82237.042545
2.850000; 543368.753692; 80772.058593
2.860000; 544176.474278; 81606.828453
2.870000; 544992.542563; 78864.866758
2.880000; 545781.191230; 77119.658293
2.890000; 546552.387813; 74597.324843
2.900000; 547298.361062; 70621.689305
2.910000; 548004.577955; 72144.538037
2.920000; 548726.023335; 68295.812261
2.930000; 549408.981458; 66043.429843
2.940000; 550069.415756; 69305.098161
2.950000; 550762.466738; 68723.319608
2.960000; 551449.699934; 69317.123848
2.970000; 552142.871172; 69311.882885
2.980000; 552835.990001; 72627.574065
2.990000; 553562.265742; 77923.604138
3.000000; 554341.501783; 78395.365303
3.010000; 555125.455436; 78961.163609
3.020000; 555915.067072; 76396.856343
3.030000; 556679.035636; 76729.279446
3.040000; 557446.328430; 74644.498113
3.050000; 558192.773411; 72960.142612
3.060000; 558922.374837; 74650.398731
3.070000; 559668.878825; 75573.448786
3.080000; 560424.613313; 74893.369523
3.090000; 561173.547008; 75100.729418
3.100000; 561924.554302; 75299.449971
3.110000; 562677.548802; 75903.890293
3.120000; 563436.587705; 74874.427538
3.130000; 564185.331980; 74720.230960
3.140000; 564932.534290; 75448.117640
3.150000; 565687.015466; 77332.841550
3.160000; 566460.343882; 76795.010917
3.170000; 567228.293991; 77056.126844
3.180000; 567998.855259; 77712.921347
3.190000; 568775.984473; 77395.869880
3.200000; 569549.943171; 76574.980236
3.210000; 570315.692974; 73138.559241
3.220000; 571047.078566; 75026.542417
3.230000; 571797.343990; 73532.154814
3.240000; 572532.665538; 69993.205025
3.250000; 573232.597589; 66273.161955
3.260000; 573895.329208; 65222.650829
3.270000; 574547.555717; 64563.319248
3.280000; 575193.188909; 67663.282435
3.290000; 575869.821733; 70086.430671
3.300000; 576570.686040; 68186.252470
3.310000; 577252.548565; 72142.286744
3.320000; 577973.971432; 69830.349342
3.330000; 578672.274926; 71842.533948
3.340000; 579390.700265; 68717.141185
3.350000; 580077.871677; 64074.872267
3.360000; 580718.620400; 63585.923998
3.370000; 581354.479640; 64227.744455
3.380000; 581996.757084; 65418.198453
3.390000; 582650.939069; 64289.445558
3.400000; 583293.833524; 65461.223191
3.410000; 583948.445756; 60747.159618
3.420000; 584555.917352; 57509.817622
3.430000; 585131.015529; 59981.420921
3.440000; 585730.829738; 60440.669725
3.450000; 586335.236435; 61200.616325
3.460000; 586947.242598; 62287.803601
3.470000; 587570.120634; 63082.763611
3.480000; 588200.948270; 62530.421715
3.490000; 588826.252488; 60954.731439
3.500000; 589435.799802; 62014.629650
3.510000; 590055.946099; 64204.639285
3.520000; 590697.992491; 67652.722916
3.530000; 591374.519721; 68587.707579
3.540000; 592060.396796; 68314.819812
3.550000; 592743.544994; 66669.663657
3.560000; 593410.241631; 63178.659976
3.570000; 594042.028231; 65635.684812
3.580000; 594698.385079; 63454.101220
3.590000; 595332.926091; 65957.309902
3.600000; 595992.499190; 63489.172898
3.610000; 596627.390919; 64499.018093
3.620000; 597272.381100; 63763.608730
3.630000; 597910.017187; 61978.472018
3.640000; 598529.801907; 61778.656516
3.650000; 599147.588473; 57190.954905
3.660000; 599719.498022; 58337.943070
3.670000; 600302.877452; 61282.976529
3.680000; 600915.707218; 61801.064187
3.690000; 601533.717860; 62263.738084
3.700000; 602156.355240; 61935.667333
3.710000; 602775.711914; 63851.276516
3.720000; 603414.224679; 60849.972371
3.730000; 604022.724403; 60381.284837
3.740000; 604626.537251; 61478.247157
3.750000; 605241.319723; 61765.215350
3.760000; 605858.971876; 62894.766351
3.770000; 606487.919540; 62714.181393
3.780000; 607115.061353; 64129.715250
3.790000; 607756.358506; 64095.846142
3.800000; 608397.316967; 61692.082282
3.810000; 609014.237790; 64608.095307
3.820000; 609660.318743; 68096.576920
3.830000; 610341.284512; 64371.762753
3.840000; 610985.002140; 63828.439908
3.850000; 611623.286539; 63102.110274
3.860000; 612254.307642; 65318.244087
3.870000; 612907.490083; 62077.314941
3.880000; 613528.263232; 65264.255504
3.890000; 614180.905787; 64110.394695
3.900000; 614822.009734; 64691.821582
3.910000; 615468.927950; 60823.123949
3.920000; 616077.159189; 59371.664899
3.930000; 616670.875838; 58959.642842
3.940000; 617260.472267; 60090.866799
3.950000; 617861.380935; 57196.180845
3.960000; 618433.342743; 55011.736508
3.970000; 618983.460108; 54917.448675
3.980000; 619532.634595; 57820.424707
3.990000; 620110.838842; 55636.346755
4.000000; 620667.202310; 55018.777309
4.010000; 621217.390083; 56175.816749
4.020000; 621779.148250; 58615.687031
4.030000; 622365.305121; 59773.621935
4.040000; 622963.041340; 60596.060468
4.050000; 623569.001945; 57982.896097
4.060000; 624148.830906; 56425.342062
4.070000; 624713.084326; 56985.715245
4.080000; 625282.941479; 54783.275309
4.090000; 625830.774232; 52917.562399
4.100000; 626359.949856; 52708.660718
4.110000; 626887.036463; 57112.853953
4.120000; 627458.165002; 58915.279972
4.130000; 628047.317802; 58917.971351
4.140000; 628636.497516; 59096.812854
4.150000; 629227.465644; 59362.796258
4.160000; 629821.093607; 59448.151029
4.170000; 630415.575117; 58406.862077
4.180000; 630999.643738; 60084.454313
4.190000; 631600.488281; 58662.540237
4.200000; 632187.113683; 55997.745637
4.210000; 632747.091140; 54372.134055
4.220000; 633290.812480; 57409.161227
4.230000; 633864.904093; 57542.734560
4.240000; 634440.331438; 54413.020963
4.250000; 634984.461648; 52800.581763
4.260000; 635512.467465; 51606.159731
4.270000; 636028.529063; 52384.868585
4.280000; 636552.377749; 52830.350382
4.290000; 637080.681252; 55165.650698
4.300000; 637632.337759; 54419.624630
4.310000; 638176.534006; 50814.956150
4.320000; 638684.683567; 46190.041059
4.330000; 639146.583978; 50370.487260
4.340000; 639650.288850; 51521.285706
4.350000; 640165.501707; 55329.889919
4.360000; 640718.800607; 57037.581813
4.370000; 641289.176425; 55875.078408
4.380000; 641847.927209; 54714.192899
4.390000; 642395.069138; 51404.018217
4.400000; 642909.109320; 50362.719684
4.410000; 643412.736517; 49226.737508
4.420000; 643905.003892; 45444.696603
4.430000; 644359.450858; 46155.799896
4.440000; 644821.008857; 49284.639057
4.450000; 645313.855248; 51651.968075
4.460000; 645830.374928; 54559.789248
4.470000; 646375.972821; 55637.676771
4.480000; 646932.349588; 52553.383716
4.490000; 647457.883426; 54513.531209
4.500000; 648003.018738; 50385.132122
4.510000; 648506.870059; 52741.479973
4.520000; 649034.284859; 52800.650108
4.530000; 649562.291360; 51696.144782
4.540000; 650079.252808; 48263.635351
4.550000; 650561.889161; 48400.319921
4.560000; 651045.892360; 50186.769492
4.570000; 651547.760055; 52437.868572
4.580000; 652072.138741; 52145.389977
4.590000; 652593.592641; 50735.067010
4.600000; 653100.943311; 45971.772690
4.610000; 653560.661038; 49663.536096
4.620000; 654057.296399; 51520.672118
4.630000; 654572.503120; 50455.113086
4.640000; 655077.054251; 49588.852525
4.650000; 655572.942776; 50473.806301
4.660000; 656077.680839; 51200.311969
4.670000; 656589.683959; 52176.445225
4.680000; 657111.448411; 52239.906266
4.690000; 657633.847474; 52544.031152
4.700000; 658159.287785; 53438.442304
4.710000; 658693.672208; 51785.294851
4.720000; 659211.525157; 50901.729022
4.730000; 659720.542447; 48385.855299
4.740000; 660204.401000; 49267.763924
4.750000; 660697.078639; 49881.085500
4.760000; 661195.889494; 50659.581158
4.770000; 661702.485306; 52457.117046
4.780000; 662227.056476; 52697.688493
4.790000; 662754.033361; 55318.598250
4.800000; 663307.219344; 55950.527040
4.810000; 663866.724614; 52481.632090
4.820000; 664391.540935; 51367.720308
4.830000; 664905.218138; 51586.572533
4.840000; 665421.083863; 49427.390679
4.850000; 665915.357770; 49932.848784
4.860000; 666414.686258; 47638.644902
4.870000; 666891.072707; 49569.926915
4.880000; 667386.771976; 50961.840571
4.890000; 667896.390382; 51276.193048
4.900000; 668409.152312; 53111.772972
4.910000; 668940.270042; 50841.354719
4.920000; 669448.683589; 53116.826506
4.930000; 669979.851854; 51768.768865
4.940000; 670497.539543; 55529.412862
4.950000; 671052.833671; 52872.432669
4.960000; 671581.557998; 50514.323983
4.970000; 672086.701238; 52144.366408
4.980000; 672608.144902; 52020.050323
4.990000; 673128.345405; 0.000000
